#Acq. time (s)=	1
#Accumulations=	1
#Range=	Off
#Autofocus=	Off
#AutoExposure=	Off
#Spike filter=	Multiple accum.
#Delay time (s)=	0
#Binning=	1
#Readout mode=	Signal
#DeNoise=	Off
#ICS correction=	On
#Dark correction=	Off
#Inst. Process=	Off
#Detector temperature (°C)=	-60.1
#Instrument=	LabRAM HR Evol
#Detector=	Syncerity OE
#Objective=	x50_VIS
#Grating=	600 (500nm)
#ND Filter=	25%
#Laser=	532nm_Edge
#Spectro (cm-¹)=	910.003
#Hole=	199.981
#Temperature=	0
#Range=	Visible
#Collection=	Microscope
#StageXY=	Manual Stage
#StageZ=	Z motor
#X (µm)=	0
#Y (µm)=	0
#Z (µm)=	-1.85
#Full time(s)=	3
#Project=	A
#Sample=	
#Site=	C
#Title=	LiNbWO6-45-H
#Remark=	
#Date=	21.06.2019 15:09
#Acquired=	21.06.2019 15:09:25
12.5879	213.557
14.4386	392.376
16.2912	722.821
18.1412	1150.45
19.9909	1648.05
21.8424	2191.44
23.6913	2631.99
25.5399	3257.97
27.3881	3741.68
29.2381	4344.18
31.0856	5020.05
32.9328	5875.75
34.7817	6814.25
36.6281	7756.61
38.4741	8824.56
40.3198	9750.47
42.1672	10509.8
44.0122	11300.5
45.8568	12159.1
47.701	12774.7
49.547	13804.3
51.3905	14153
53.2336	15294
55.0764	16815.4
56.9188	18736.8
58.763	20400
60.6046	21626.8
62.446	21709.8
64.2869	20526.8
66.1275	18633.8
67.9678	16019.4
69.8076	13707.2
71.6493	11577.9
73.4884	9962.6
75.3272	8746.74
77.1656	8151.59
79.0037	7640.48
80.8414	7521.34
82.6787	7361.11
84.5157	7242.37
86.3545	7228.27
88.1907	7129.78
90.0266	7114.39
91.8622	6920.32
93.6974	6715.63
95.5322	6617.58
97.3666	6405.15
99.2007	6317.52
101.034	6242.83
102.868	6238.27
104.701	6228.28
106.534	6399.81
108.366	6726.7
110.198	7321.45
112.029	8269.57
113.861	9452.25
115.691	10438.5
117.522	10989.1
119.352	10895
121.182	10283.6
123.011	9457.84
124.84	9118.62
126.669	9208.03
128.497	9580.52
130.325	9921.93
132.153	10207.5
133.98	10028.8
135.805	9603.73
137.632	8853.96
139.458	8163.34
141.284	7633.23
143.109	7285.25
144.934	6942.93
146.759	6760.1
148.584	6604.4
150.408	6391.73
152.229	6387.35
154.053	6290.24
155.876	6221.45
157.698	6194.76
159.521	6099
161.342	6135.69
163.162	6270.22
164.983	6209.17
166.804	6189.69
168.624	6176.1
170.445	6242.04
172.262	6396.25
174.082	6466.35
175.901	6482.42
177.719	6522.59
179.536	6558.58
181.354	6565.19
183.171	6635.91
184.989	6608.19
186.804	6614.42
188.62	6641.73
190.436	6688.45
192.252	6640.81
194.066	6576.91
195.881	6487.78
197.696	6388.72
199.508	6452.98
201.322	6479.61
203.136	6386.61
204.947	6462.61
206.76	6543.51
208.573	6578.95
210.383	6627.25
212.195	6748.34
214.007	6770.44
215.816	6894.71
217.627	6815.62
219.435	6934.97
221.246	7179.76
223.055	7294.09
224.863	7572.98
226.672	8035.65
228.479	8585.71
230.287	9074.4
232.093	9762.33
233.901	10394.1
235.708	10755.5
237.513	10769.3
239.32	10576.1
241.124	10091.4
242.93	9519.24
244.734	8982.65
246.539	8430.99
248.342	8076.61
250.147	7757.98
251.949	7475.58
253.753	7393.56
255.554	7178.62
257.357	7075.28
259.158	6964.43
260.961	6771.97
262.761	6917.71
264.56	6817.85
266.362	6819.99
268.161	6751.83
269.961	6735.83
271.76	6799.28
273.56	6866.38
275.357	6889.69
277.155	6873.88
278.954	6953.45
280.75	6864.17
282.548	6764.95
284.344	6611.46
286.14	6508.11
287.937	6238.73
289.732	6109.56
291.526	5965.6
293.323	5811.43
295.116	5723.42
296.91	5623.85
298.705	5442.6
300.498	5459.38
302.29	5418.12
304.084	5357.72
305.876	5477.02
307.667	5424.17
309.458	5309.3
311.251	5334.21
313.041	5230.89
314.831	5273.86
316.621	5211.7
318.412	5145.66
320.201	5169.57
321.989	5144.5
323.778	4997.27
325.568	4976.79
327.355	4833.81
329.142	4803.92
330.929	4734.02
332.715	4651.82
334.504	4561.46
336.289	4560.6
338.075	4481
339.86	4498.77
341.645	4378.33
343.429	4296.01
345.213	4349.7
346.999	4229.25
348.782	4196.78
350.565	4163.39
352.348	4109.82
354.13	4118.76
355.912	4037.42
357.694	4007.19
359.475	3990.79
361.256	4020
363.037	3871.15
364.819	3871.51
366.599	3901.46
368.379	3942.43
370.158	3927.58
371.937	3948.47
373.715	3996.27
375.494	4021.72
377.272	4017.31
379.049	4044.17
380.826	4224.32
382.603	4185.13
384.38	4243.07
386.156	4397.35
387.931	4516.08
389.707	4620.28
391.482	4734.9
393.257	4867.62
395.031	5051.3
396.803	5109.51
398.577	5170.13
400.35	5130.08
402.124	5037.28
403.896	5030.75
405.669	4908.12
407.441	4692.04
409.212	4491.79
410.984	4484.07
412.755	4200.14
414.523	4087.71
416.294	3961.93
418.064	3911.11
419.833	3813.6
421.603	3774.89
423.372	3709
425.14	3778.18
426.906	3754.7
428.674	3788.06
430.442	3793
432.209	3893.14
433.976	3912.6
435.741	3940.48
437.507	4017.84
439.273	4041.34
441.038	3970.49
442.802	3896.03
444.567	3946.5
446.331	3957.08
448.095	3905.71
449.857	3860.67
451.621	3755.55
453.384	3703.92
455.147	3695.39
456.907	3633.44
458.669	3540.55
460.431	3433.39
462.191	3397.33
463.952	3397.02
465.713	3268.68
467.471	3195.1
469.231	3223
470.991	3190.83
472.748	3096.65
474.508	3084.05
476.264	3008.08
478.023	3040.32
479.781	3068.26
481.537	2996.85
483.294	2891.88
485.049	2960.98
486.806	2903.34
488.562	2891.48
490.316	2922.53
492.072	2909.66
493.826	2944.97
495.581	2850.91
497.333	2850.44
499.088	2828.04
500.84	2791.3
502.594	2833.86
504.347	2805.09
506.098	2785.38
507.851	2777.67
509.601	2808.3
511.351	2810.04
513.103	2791.51
514.852	2831.3
516.603	2820.98
518.352	2783.71
520.102	2811.62
521.85	2799.93
523.6	2814.87
525.347	2797
527.094	2858.59
528.843	2857.68
530.589	2907.57
532.338	2841.69
534.083	2874.67
535.829	2863.7
537.576	2910.83
539.32	2899.18
541.067	2824.45
542.811	2895.37
544.554	2821.56
546.3	2907.67
548.043	2862.35
549.785	2856.34
551.53	2809.84
553.272	2856.49
555.013	2912.61
556.757	2866.21
558.498	2956.1
560.238	2967.83
561.979	2910.36
563.721	3024.31
565.461	3054.06
567.2	3083.61
568.939	3095.52
570.68	3106.52
572.418	3138.05
574.156	3264.48
575.894	3248.77
577.633	3336.95
579.37	3346.8
581.107	3326.67
582.843	3389.93
584.579	3372.3
586.315	3456.56
588.052	3436.2
589.787	3458.26
591.522	3498.17
593.256	3509.17
594.99	3552.33
596.724	3488.62
598.457	3461.17
600.193	3462.75
601.925	3417.26
603.658	3459.96
605.39	3424.05
607.121	3411.12
608.853	3438.57
610.584	3483.39
612.315	3393.81
614.045	3416.27
615.775	3426.27
617.505	3407.68
619.234	3411.82
620.964	3439.85
622.692	3435.19
624.421	3391.37
626.149	3463.85
627.877	3410.54
629.604	3444.19
631.331	3451.34
633.058	3427.89
634.784	3416.44
636.511	3475.68
638.236	3431.52
639.962	3471.31
641.687	3555.5
643.412	3465.5
645.136	3558.27
646.861	3596.62
648.584	3587.39
650.308	3596.47
652.031	3605.62
653.754	3682.45
655.477	3669.55
657.197	3632.55
658.919	3706.94
660.64	3667.58
662.361	3766.15
664.082	3796.73
665.803	3858.72
667.521	3821.62
669.241	3839.77
670.961	3925.76
672.68	3926.12
674.399	4019.64
676.117	3972.32
677.834	4053.02
679.552	4032.93
681.269	4156.41
682.987	4160.93
684.702	4171.73
686.418	4307.9
688.135	4350.17
689.851	4386.14
691.564	4432.93
693.28	4412.27
694.995	4591.23
696.709	4618.22
698.422	4653.76
700.136	4832.29
701.85	4904.33
703.561	4976.29
705.274	5065.52
706.987	5195.45
708.697	5282.4
710.409	5367.81
712.121	5407.38
713.831	5695.77
715.542	5683.15
717.251	5765.99
718.961	5782.27
720.671	5911.14
722.379	5953.03
724.089	5934.01
725.796	5947.33
727.505	5868.27
729.213	5822.38
730.92	5748.97
732.628	5660.36
734.333	5501.77
736.04	5393.52
737.745	5272.51
739.452	5236.99
741.156	5141.27
742.862	4961.58
744.566	4829.4
746.271	4664.98
747.974	4651.61
749.679	4540.8
751.381	4499.73
753.085	4460.12
754.787	4339.08
756.49	4252.95
758.192	4320.34
759.892	4233.73
761.595	4167.69
763.295	4096.87
764.997	4084.83
766.696	4000.35
768.395	4051.34
770.096	3943.49
771.795	3876.37
773.495	3909.26
775.193	3824.55
776.89	3830.19
778.59	3780.24
780.286	3733.12
781.983	3689.11
783.681	3618.06
785.377	3512.17
787.073	3474.43
788.77	3505.51
790.465	3444.33
792.16	3367.85
793.854	3249.48
795.55	3294.03
797.244	3326.02
798.938	3230
800.633	3204.26
802.325	3164.34
804.018	3139.9
805.71	3071.88
807.402	3030.05
809.095	3074.91
810.786	3065.48
812.477	3033.08
814.168	3038.12
815.858	2963.14
817.55	2951.6
819.24	2932.58
820.929	2912.95
822.618	2923.36
824.306	2873.68
825.995	2903.06
827.685	2853.82
829.372	2804.61
831.06	2841.19
832.747	2769.27
834.434	2840.04
836.12	2818.02
837.806	2841.14
839.492	2821.18
841.177	2829.47
842.863	2897.02
844.547	2886.39
846.232	3011.07
847.916	3164.44
849.602	3140.22
851.286	3308.94
852.969	3394.1
854.652	3596.84
856.334	3736.06
858.017	3968.9
859.699	4302.78
861.38	4498.64
863.06	4785.44
864.741	5128.21
866.422	5368.3
868.102	5528.81
869.782	5678.46
871.462	5852.18
873.141	5890.47
874.82	5856.93
876.499	5918.94
878.178	5949.07
879.856	5931.18
881.534	5861.65
883.21	5732.43
884.887	5593.3
886.564	5505.81
888.24	5454.93
889.917	5230.38
891.593	5049.31
893.269	4922.27
894.942	4855.37
896.617	4534.48
898.292	4391.07
899.966	4331.02
901.64	4148.53
903.312	4040.46
904.986	3836.25
906.659	3786.12
908.332	3634.75
910.003	3600.62
911.675	3478.67
913.347	3482.62
915.018	3411.72
916.688	3291.09
918.359	3246.57
920.029	3288.91
921.7	3217.34
923.368	3299.79
925.038	3251.32
926.707	3239.48
928.374	3350.59
930.043	3485.9
931.712	3581.42
933.378	3924.07
935.046	4160.36
936.711	4527.3
938.379	5075.8
940.046	5648.62
941.71	6460.86
943.377	7216.88
945.043	8025.06
946.706	8671.39
948.372	9186.77
950.035	9169.17
951.7	8942.79
953.362	8302.53
955.026	7499.58
956.688	6616.54
958.352	5774.9
960.013	4982.05
961.676	4430.89
963.337	3799.34
964.999	3457.53
966.659	3028.05
968.321	2836.68
969.98	2591.65
971.641	2441.59
973.3	2205.82
974.961	2090.13
976.619	1862.34
978.279	1706.91
979.936	1557
981.595	1441.17
983.252	1304.23
984.909	1227.16
986.567	1148.95
988.223	1090.84
989.879	1075.47
991.536	982.259
993.191	958.659
994.848	923.767
996.503	870.368
998.157	860.932
999.813	818.727
1001.47	817.795
1003.12	784.237
1004.77	720.85
1006.43	721.679
1008.08	708.222
1009.73	687.518
1011.39	686.784
1013.04	647.38
1014.69	651.057
1016.34	613.134
1017.99	612.534
1019.64	568.632
1021.29	579.435
1022.94	559.977
1024.59	539.129
1026.24	522.651
1027.89	503.212
1029.54	499.612
1031.19	500.193
1032.84	491.801
1034.48	483.165
1036.13	471.445
1037.78	461.161
1039.42	471.413
1041.07	454.18
1042.72	437.048
1044.36	428.583
1046.01	424.255
1047.65	410.892
1049.3	407.58
1050.94	412.995
1052.59	409.758
1054.23	389.185
1055.87	390.512
1057.52	383.118
1059.16	393.126
1060.8	371.111
1062.44	375.219
1064.09	356.124
1065.73	387.833
1067.37	384.742
1069.01	362.756
1070.65	368.127
1072.29	344.388
1073.93	327.789
1075.57	355.801
1077.21	333.611
1078.85	344.706
1080.49	363.142
1082.13	338.703
1083.77	327.164
1085.4	318.426
1087.04	326.737
1088.68	330.61
1090.32	327.247
1091.95	346.663
1093.59	329.136
1095.22	303.253
1096.86	301.659
1098.5	324.275
1100.13	294.427
1101.77	302.904
1103.4	302.851
1105.03	304.173
1106.67	313.946
1108.3	309.511
1109.93	317.839
1111.57	293.663
1113.2	296.433
1114.83	293.559
1116.46	272.289
1118.09	293.471
1119.72	289.274
1121.36	305.017
1122.99	296.805
1124.62	287.158
1126.25	291.584
1127.88	291.626
1129.51	281.67
1131.13	287.362
1132.76	297.409
1134.39	286.232
1136.02	276.468
1137.65	282.297
1139.28	268.176
1140.9	289.614
1142.53	286.869
1144.16	286.963
1145.78	261.393
1147.41	288.505
1149.03	270.014
1150.66	265.747
1152.28	265.702
1153.91	267.009
1155.53	271.106
1157.15	256.718
1158.78	269.428
1160.4	269.425
1162.03	265.197
1163.65	272.309
1165.27	280.753
1166.89	280.581
1168.51	263.337
1170.13	260.318
1171.76	265.842
1173.38	258.621
1175	261.306
1176.62	255.463
1178.24	251.013
1179.86	256.451
1181.48	271.774
1183.09	253.247
1184.71	253.124
1186.33	246.016
1187.95	248.827
1189.57	238.948
1191.18	262.826
1192.8	254.166
1194.42	244.023
1196.03	246.534
1197.65	243.495
1199.27	248.974
1200.88	247.505
1202.5	236.247
1204.11	244.63
1205.73	240.421
1207.34	236.243
1208.96	240.484
1210.57	226.474
1212.18	219.459
1213.8	230.704
1215.41	235.02
1217.02	230.988
1218.63	211.495
1220.24	225.655
1221.85	234.106
1223.47	232.668
1225.08	205.95
1226.69	217.249
1228.3	224.39
1229.91	214.687
1231.52	219.107
1233.13	223.6
1234.74	216.865
1236.34	207.293
1237.95	241.572
1239.56	223.373
1241.17	199.411
1242.77	210.92
1244.38	212.524
1245.99	207.029
1247.6	200.084
1249.2	208.773
1250.81	211.743
1252.41	208.996
1254.02	207.664
1255.62	202.033
1257.23	203.521
1258.83	186.425
1260.44	193.606
1262.04	203.638
1263.64	207.931
1265.25	197.889
1266.85	192.089
1268.45	200.531
1270.05	188.982
1271.65	198.847
1273.26	193.063
1274.86	201.55
1276.46	202.908
1278.06	181.457
1279.66	179.893
1281.26	183.972
1282.86	186.602
1284.46	203.397
1286.06	191.836
1287.65	178.875
1289.25	189.928
1290.85	191.06
1292.45	186.571
1294.05	189.179
1295.65	182.02
1297.24	174.921
1298.84	177.658
1300.43	174.73
1302.03	185.761
1303.63	181.329
1305.22	181.126
1306.82	182.391
1308.41	183.73
1310.01	172.544
1311.6	185.118
1313.19	169.734
1314.79	189.248
1316.38	173.82
1317.97	169.556
1319.57	180.642
1321.16	170.834
1322.75	168.054
1324.34	180.679
1325.93	172.421
1327.52	169.756
1329.12	160.086
1330.7	178.361
1332.3	156.049
1333.89	164.513
1335.47	167.392
1337.06	166.099
1338.65	162.048
1340.24	163.663
1341.83	169.554
1343.42	174.078
1345.01	160.251
1346.59	167.555
1348.18	160.678
1349.77	153.766
1351.35	172.386
1352.94	171.199
1354.52	168.618
1356.11	173.162
1357.7	149.146
1359.28	160.758
1360.86	163.802
1362.45	162.586
1364.03	154.25
1365.62	158.872
1367.2	157.765
1368.78	162.404
1370.37	154.001
1371.95	149.879
1373.53	142.823
1375.11	144.45
1376.7	154.797
1378.28	144.79
1379.86	163.886
1381.44	159.665
1383.02	153.941
1384.6	148.167
1386.18	146.743
1387.76	156.997
1389.34	152.663
1390.92	146.875
1392.5	160.076
1394.07	142.544
1395.65	151.296
1397.23	146.884
1398.81	136.644
1400.38	149.811
1401.96	152.76
1403.54	157.162
1405.11	148.379
1406.69	136.65
1408.27	132.214
1409.84	140.901
1411.41	145.171
1412.99	136.291
1414.56	141.989
1416.14	143.33
1417.71	141.786
1419.28	150.433
1420.86	148.898
1422.43	137.18
1424	135.613
1425.58	141.286
1427.15	141.164
1428.72	125.14
1430.29	136.611
1431.86	139.39
1433.43	142.148
1435	131.909
1436.57	138.967
1438.14	135.951
1439.71	134.408
1441.28	134.348
1442.85	140.077
1444.42	137.205
1445.99	141.5
1447.56	144.314
1449.12	138.48
1450.69	128.351
1452.26	132.603
1453.83	144.061
1455.39	142.628
1456.96	128.263
1458.52	132.489
1460.09	125.247
1461.66	139.509
1463.22	128.075
1464.79	139.591
1466.35	148.271
1467.91	132.58
1469.48	134.06
1471.04	138.394
1472.6	129.81
1474.17	125.517
1475.73	128.39
1477.29	125.53
1478.85	138.482
1480.42	134.255
1481.98	125.742
1483.54	122.97
1485.1	120.168
1486.66	131.724
1488.22	125.984
1489.78	134.643
1491.34	107.315
1492.9	128.98
1494.46	121.838
1496.02	123.347
1497.58	127.751
1499.13	119.171
1500.69	130.818
1502.25	117.87
1503.81	133.807
1505.36	128.01
1506.92	117.86
1508.48	135.189
1510.03	136.617
1511.59	130.817
1513.15	120.678
1514.7	133.669
1516.26	129.335
1517.81	123.572
1519.36	120.691
1520.92	130.788
1522.47	145.173
1524.03	126.322
1525.58	129.154
1527.13	119.041
1528.69	127.717
1530.24	126.292
1531.79	126.273
1533.34	134.862
1534.89	124.669
1536.44	124.573
1537.99	121.624
1539.55	128.782
1541.09	123.01
1542.65	127.306
1544.19	131.576
1545.74	130.061
1547.29	119.912
1548.84	137.043
1550.39	141.261
1551.94	126.86
1553.49	131.103
1555.03	128.172
1556.58	140.972
1558.13	129.432
1559.68	130.776
1561.22	129.274
1562.77	120.651
1564.31	137.742
1565.86	127.724
1567.41	130.559
1568.95	134.824
1570.49	123.396
1572.04	114.826
1573.58	117.676
1575.13	127.671
1576.67	127.703
1578.21	123.476
1579.76	116.404
1581.3	110.75
1582.84	125.078
1584.38	136.51
1585.92	129.322
1587.47	122.126
1589.01	130.651
1590.55	134.906
1592.09	127.753
1593.63	129.179
1595.17	123.488
1596.71	129.252
1598.25	123.623
1599.79	122.292
1601.33	130.964
1602.86	123.858
1604.4	119.578
1605.94	121.011
1607.48	122.454
1609.02	126.792
1610.55	116.834
1612.09	125.534
1613.63	121.324
1615.16	117.08
1616.7	132.904
1618.23	112.769
1619.77	121.346
1621.3	127.055
1622.84	118.437
1624.37	121.336
1625.91	125.698
1627.44	121.457
1628.98	122.976
1630.51	131.702
1632.04	118.839
1633.57	121.805
1635.11	117.542
1636.64	134.881
1638.17	120.448
1639.7	121.859
1641.23	123.268
1642.76	107.403
1644.29	131.942
1645.82	123.343
1647.36	124.837
1648.89	130.642
1650.41	132.102
1651.94	123.47
1653.47	126.437
1655	130.906
1656.53	128.166
1658.06	128.291
1659.59	109.496
1661.11	116.742
1662.64	119.607
1664.17	123.927
1665.69	125.372
1667.22	119.582
1668.75	126.832
1670.27	129.73
1671.8	141.351
1673.32	137.082
1674.85	128.501
1676.37	130.08
1677.9	125.794
1679.42	128.702
1680.95	122.827
1682.47	131.471
1683.99	137.228
1685.51	135.757
1687.04	127.047
1688.56	137.216
1690.08	141.581
1691.6	125.626
1693.12	130.017
1694.64	121.336
1696.17	134.437
1697.69	124.254
1699.21	140.196
1700.73	134.323
1702.25	121.19
1703.77	129.83
1705.29	141.372
1706.8	126.836
1708.32	122.476
1709.84	128.268
1711.36	135.483
1712.88	139.744
1714.4	142.506
1715.91	146.71
1717.43	136.511
1718.95	129.269
1720.46	127.835
1721.98	140.827
1723.49	132.113
1725.01	130.616
1726.52	136.357
